Horizontal-Spectrum-NTC - Comune Norcia (PG) - SLV q=4 VR=50 Suolo=B Topo=T4 h/H=1 (4)
Time (s)      Acc. (m/s^2)
0             -8.29078877228312E-03
0.01          -7.21945381199475E-03
0.02          -6.54907453455962E-03
0.03          -6.89545925008133E-03
0.04          -8.39630132191815E-03
0.05          -1.07933513901662E-02
0.06          -1.36522801034153E-02
0.07          -1.65551303140819E-02
0.08          -1.91767317359336E-02
0.09          -2.12642539618537E-02
9.999999E-02  -2.25995615869761E-02
0.11          -2.30144146853127E-02
0.12          -0.022473556373734
0.13          -2.11801522714086E-02
0.14          -0.019622990777716
0.15          -1.84902400674764E-02
0.16          -1.84268457430881E-02
0.17          -1.96985386312008E-02
0.18          -2.19098505238071E-02
0.19          -2.39524314156733E-02
0.2           -2.42898614401929E-02
0.21          -2.15219151740894E-02
0.22          -1.49943268729839E-02
0.23          -5.15142896678299E-03
0.24          0.00655724921613
0.25          1.81574889575131E-02
0.26          2.77459793072194E-02
0.27          3.39128891914152E-02
0.28          3.58983980608173E-02
0.29          3.36202977178618E-02
0.3           2.77610084787011E-02
0.31          1.99106098338962E-02
0.32          0.012498409752734
0.33          8.1889158859849E-03
0.34          8.70426971639972E-03
0.35          1.35230532113928E-02
0.36          1.92445160401985E-02
0.37          2.02790026925504E-02
0.38          1.09004525095224E-02
0.39          -1.21195592859294E-02
0.4           -4.75770441675559E-02
0.41          -8.96953836176544E-02
0.42          -0.130009468747303
0.43          -0.160431408025324
0.44          -0.176007787529379
0.45          -0.176090763173997
0.46          -0.163588465936482
0.47          -0.143013941310346
0.48          -0.118572543337941
0.49          -9.31986789219081E-02
0.5           -6.86376140266657E-02
0.51          -4.59613031661138E-02
0.52          -2.58088721358217E-02
0.53          -8.11767293082085E-03
0.54          8.27125655952841E-03
0.55          2.54893880384043E-02
0.56          4.56583214644343E-02
0.57          6.93628971744329E-02
0.58          9.44450494833291E-02
0.59          0.116040826868266
0.6           0.128239973383024
0.61          0.126851807842031
0.62          0.11200640338473
0.63          8.91317211650312E-02
0.64          6.74596467521042E-02
0.65          5.63762038014829E-02
0.66          6.11280349642038E-02
0.67          7.99727247934788E-02
0.68          0.104390496360138
0.69          0.122571938345209
0.7           0.124715655511245
0.71          0.107581659983844
0.72          7.59662765823305E-02
0.73          4.02379023050889E-02
0.74          1.11017771693878E-02
0.75          -5.77761836873833E-03
0.76          -1.25425813556649E-02
0.77          -1.78477681113873E-02
0.78          -3.20762193691917E-02
0.79          -6.13710872735828E-02
0.8           -0.10340680282563
0.81          -0.147075015306473
0.82          -0.176487807389349
0.83          -0.17767932375893
0.84          -0.145030984031037
0.85          -0.084379844320938
0.86          -1.11500680900645E-02
0.87          0.055924648004584
0.88          0.10277880272828
0.89          0.126002974854782
0.9           0.133891106313095
0.91          0.141837801290676
0.92          0.164161072801799
0.93          0.206346979569644
0.94          0.261699518635869
0.95          0.314192495159805
0.96          0.34603380035609
0.97          0.345842925310135
0.98          0.313061899468303
0.9899999     0.256519890557975
1             0.188638760056347
1.01          0.119275844609365
1.02          0.053063756134361
1.03          -8.59621043025982E-03
1.04          -6.31311311619356E-02
1.05          -0.103998303506523
1.06          -0.122355189369991
1.07          -0.112708233715966
1.08          -7.87471209838986E-02
1.09          -3.47132336860523E-02
1.1           -8.97894227910001E-05
1.11          1.02528882224578E-02
1.12          -5.07937630929519E-03
1.13          -3.17145439563319E-02
1.14          -4.58218744816259E-02
1.15          -2.60478450986557E-02
1.16          3.51723588863388E-02
1.17          0.126806738600135
1.18          0.22316265815869
1.19          0.294269660990685
1.2           0.317506806626916
1.21          0.285283239707351
1.22          0.206078519281
1.23          9.94967788551003E-02
1.24          -1.15320408786647E-02
1.25          -0.107712601069361
1.26          -0.177154335156083
1.27          -0.21574456974864
1.28          -0.225511009600013
1.29          -0.212598365731537
1.3           -0.185609701350331
1.31          -0.154079906567931
1.32          -0.126611085282639
1.33          -0.108775487830862
1.34          -0.101618559826165
1.35          -0.101731164408848
1.36          -0.103224981827661
1.37          -0.100908506847918
1.38          -9.31849562376738E-02
1.39          -8.31561591289938E-02
1.4           -7.72023048810661E-02
1.41          -8.15782331675291E-02
1.42          -9.87262528762221E-02
1.43          -0.125330207012594
1.44          -0.153348145801574
1.45          -0.173648235015571
1.46          -0.180372112747282
1.47          -0.173611488919705
1.48          -0.158791428487748
1.49          -0.142879062490538
1.5           -0.129305208167061
1.51          -0.114389554895461
1.52          -8.76040721219033E-02
1.53          -3.62325321743265E-02
1.54          4.74104533391073E-02
1.55          0.159814106505364
1.56          0.284813269749284
1.57          0.398351762406528
1.58          0.47768769800663
1.59          0.510644432678819
1.6           0.500326326303184
1.61          0.463135330416262
1.62          0.421494530327618
1.63          0.395164883695543
1.64          0.395123258829117
1.65          0.42194187887013
1.66          0.467956140451133
1.67          0.520975256748498
1.68          0.567470342181623
1.69          0.59451652854681
1.7           0.591103728041053
1.71          0.549777435064316
1.72          0.46878633543849
1.73          0.353749822676182
1.74          0.21725039223209
1.75          7.55143507663161E-02
1.76          -5.69560648687184E-02
1.77          -0.172244757078588
1.78          -0.270569945778698
1.79          -0.357298570945859
1.8           -0.436913638003171
1.81          -0.507510251998901
1.82          -0.559386968538165
1.83          -0.579050862416625
1.84          -0.556602926440537
1.85          -0.492261188663542
1.86          -0.397994058988988
1.87          -0.293056619558483
1.88          -0.195867581404746
1.89          -0.116942001571879
1.9           -5.68933077994734E-02
1.91          -1.02683182479814E-02
1.92          2.77546062343754E-02
1.93          5.65094563644379E-02
1.94          7.00483507337049E-02
1.95          6.20271859830245E-02
1.96          3.16591918375343E-02
1.97          -1.35210694978014E-02
1.98          -6.01294447341934E-02
1.99          -9.52293438278139E-02
2             -0.11269286650233
2.01          -0.115387446200475
2.02          -0.114553806837648
2.03          -0.122193203223869
2.04          -0.145505595216528
2.05          -0.183735504280776
2.06          -0.228961488101631
2.07          -0.26979679768905
2.08          -0.295805468726903
2.09          -0.300634044595063
2.1           -0.282919539324939
2.11          -0.245137536115944
2.12          -0.191269257925451
2.13          -0.124468966964632
2.14          -0.046059591206722
2.15          4.31140608899295E-02
2.16          0.139080089936033
2.17          0.230794133394957
2.18          0.2992226546444
2.19          0.322266293987632
2.2           0.285142979621887
2.21          0.191488108243793
2.22          6.79700173158199E-02
2.23          -4.27520634233952E-02
2.24          -9.95896673575044E-02
2.25          -8.29880699515343E-02
2.26          -6.26834080321714E-03
2.27          8.89420977886766E-02
2.28          0.151824279176071
2.29          0.146308317426592
2.3           6.72854682477191E-02
2.31          -5.89808551501483E-02
2.32          -0.189344610348344
2.33          -0.28436327168718
2.34          -0.323872670307755
2.35          -0.310633185356855
2.36          -0.262664656396955
2.37          -0.200938487816602
2.38          -0.140234695756808
2.39          -8.72404027171433E-02
2.4           -4.43965243035927E-02
2.41          -1.45098976185545E-02
2.42          -1.65648978480021E-03
2.43          -7.58257161418442E-03
2.44          -2.66742806090042E-02
2.45          -4.39981233514845E-02
2.46          -3.91257116384804E-02
2.47          5.17947276122868E-03
2.48          9.35016743279994E-02
2.49          0.21257578086108
2.5           0.333695846423507
2.51          0.422584889866412
2.52          0.452872845679522
2.53          0.41711010530591
2.54          0.329869538135827
2.55          0.221032426133752
2.56          0.122397197959945
2.57          5.44478103518486E-02
2.58          2.01754955551587E-02
2.59          8.77723657235038E-03
2.6           6.21982604381628E-03
2.61          5.65846764540765E-03
2.62          1.11468578316271E-02
2.63          3.26923057646491E-02
2.64          7.64813568955287E-02
2.65          0.137212096396834
2.66          0.197938537281007
2.67          0.237731690313667
2.68          0.242249760758132
2.69          0.210477653704584
2.7           0.153574707135558
2.71          8.70974839758128E-02
2.72          2.21266474644654E-02
2.73          -3.87836358183995E-02
2.74          -0.098575604846701
2.75          -0.158348574992269
2.76          -0.211424299646169
2.77          -0.24347245009616
2.78          -0.239173668511212
2.79          -0.191475116461515
2.8           -0.107711002221331
2.81          -8.66052980243694E-03
2.82          7.92779293935746E-02
2.83          0.134807483777404
2.84          0.149956870358437
2.85          0.132002181569114
2.86          9.86796304676682E-02
2.87          6.95356412837282E-02
2.88          5.76938418718055E-02
2.89          6.55326876975596E-02
2.9           8.55201061908156E-02
2.91          0.105057334760204
2.92          0.11268823441118
2.93          0.102848695227876
2.94          7.73263937607408E-02
2.95          4.32837352110073E-02
2.96          9.37783013039734E-03
2.97          -1.77022261172533E-02
2.98          -3.45634832954966E-02
2.99          -4.03419827437028E-02
3             -3.55205034767278E-02
3.01          -2.21636539441533E-02
3.02          -5.73304819583427E-03
3.03          3.55234710528748E-03
3.04          -7.4265737249516E-03
3.05          -4.86768049327657E-02
3.06          -0.119406867921352
3.07          -0.203632135614753
3.08          -0.273360237088054
3.09          -0.29964378207922
3.1           -0.266676723416895
3.11          -0.181240460816771
3.12          -0.071402986147441
3.13          2.60160462954082E-02
3.14          8.31629747897387E-02
3.15          9.45473574846983E-02
3.16          7.86211317591369E-02
3.17          0.066596652539447
3.18          8.48551498632878E-02
3.19          0.140904421219602
3.2           0.220555750150234
3.21          0.297243481781334
3.22          0.347389696575701
3.23          0.362648955993354
3.24          0.352334431037307
3.25          0.335570536851883
3.26          0.328741464056075
3.27          0.336072885766625
3.28          0.348565790913999
3.29          0.350935375057161
3.3           0.331365146264434
3.31          0.287720761187375
3.32          0.226840538531542
3.33          0.158316725939512
3.34          8.76157300081104E-02
3.35          1.33591724303551E-02
3.36          -0.069551552105695
3.37          -0.163252744395286
3.38          -0.261301542520523
3.39          -0.348124618493021
3.4           -0.404445767104626
3.41          -0.415929954461753
3.42          -0.380166227370501
3.43          -0.307867196537554
3.44          -0.217509058434516
3.45          -0.126576193850487
3.46          -4.47086240071803E-02
3.47          2.72697852621786E-02
3.48          9.23817680776119E-02
3.49          0.150543711539358
3.5           0.194850567877293
3.51          0.213986184094101
3.52          0.199350183047354
3.53          0.152201406313106
3.54          8.60073254350573E-02
3.55          2.22082892130129E-02
3.56          -1.83668592490722E-02
3.57          -2.36715206690133E-02
3.58          6.06293508375529E-03
3.59          6.07663846760988E-02
3.6           0.126664587305859
3.61          0.192049367856234
3.62          0.249540928043425
3.63          0.294533461779356
3.64          0.322254526466131
3.65          0.326673669330776
3.66          0.302873071376234
3.67          0.251662535425276
3.68          0.18309205474332
3.69          0.115570628503338
3.7           6.96428554644808E-02
3.71          5.88109569903463E-02
3.72          8.21744755748659E-02
3.73          0.123450445951894
3.74          0.157907640114427
3.75          0.164304950851947
3.76          0.135658070929348
3.77          8.27593890018761E-02
3.78          2.81652886234224E-02
3.79          -6.17990509257652E-03
3.8           -1.07054010441061E-02
3.81          7.34409772034269E-03
3.82          2.91783187352121E-02
3.83          3.60531025961973E-02
3.84          2.00628589955159E-02
3.85          -0.012403104705736
3.86          -4.64858212508261E-02
3.87          -7.01033967873082E-02
3.88          -8.32949574105442E-02
3.89          -9.94612752925605E-02
3.9           -0.137366810068488
3.91          -0.208618586305529
3.92          -0.308251577876508
3.93          -0.414194427765906
3.94          -0.496094879060984
3.95          -0.528684408590198
3.96          -0.502724525257945
3.97          -0.428444055765867
3.98          -0.330583227351308
3.99          -0.238014238737524
4             -0.172784930169582
4.01          -0.142882616501302
4.02          -0.140994175979868
4.03          -0.149004176203161
4.04          -0.14583380674012
4.05          -0.115310189863667
4.06          -5.12542941374704E-02
4.07          4.13696537353098E-02
4.08          0.148660131515935
4.09          0.251803215779364
4.1           0.331528904847801
4.11          0.372281585969031
4.12          0.365785767920315
4.13          0.313469084948301
4.14          0.226755699086934
4.15          0.124333613058552
4.16          2.65456806938164E-02
4.17          -5.13219528179616E-02
4.18          -0.103898352663964
4.19          -0.136120905457065
4.2           -0.158638085257262
4.21          -0.180528891216964
4.22          -0.203467591311783
4.23          -0.220819057580084
4.24          -0.222211169991642
4.25          -0.200714100915939
4.26          -0.158166306316853
4.27          -0.105512056276202
4.28          -5.82820946071297E-02
4.29          -0.030251102366019
4.3           -2.89317489601672E-02
4.31          -5.48061715811491E-02
4.32          -0.10351296633482
4.33          -0.168546192180365
4.34          -0.242336738090962
4.35          -0.315465287826955
4.36          -0.375758596211672
4.37          -0.409698503650725
4.38          -0.407242673076689
4.39          -0.368418696038425
4.4           -0.30765881638974
4.41          -0.251624144800007
4.42          -0.229147776737809
4.43          -0.25673448337242
4.44          -0.326964787580073
4.45          -0.407277390919626
4.46          -0.451994995884597
4.47          -0.423154810667038
4.48          -0.309921835027635
4.49          -0.135960088754073
4.5           5.00625493610278E-02
4.51          0.196509733591229
4.52          0.271955863796175
4.53          0.277373820729554
4.54          0.241502340417355
4.55          0.203087175115943
4.56          0.190697582960129
4.57          0.211147927343845
4.58          0.251383952144533
4.59          0.290320707354695
4.6           0.311809243150055
4.61          0.310771983638406
4.62          0.290326444935054
4.63          0.254174353089184
4.64          0.201294839065522
4.65          0.127418832443655
4.66          3.19691627891734E-02
4.67          -7.55398592445999E-02
4.68          -0.175816839393228
4.69          -0.248302085772157
4.7           -0.28306506190449
4.71          -0.287920114696026
4.72          -0.284869878105819
4.73          -0.296775777619332
4.74          -0.332026685625315
4.75          -0.377146469391882
4.76          -0.402918218560517
4.77          -0.381190147921443
4.78          -0.302480540480465
4.79          -0.183488623872399
4.8           -5.95887737162411E-02
4.81          3.34192745550536E-02
4.82          7.74328222218901E-02
4.83          7.94100399222225E-02
4.84          6.41909024538472E-02
4.85          0.057989126262255
4.86          7.31720749475062E-02
4.87          0.103416578639299
4.88          0.131139032039791
4.89          0.141121352920309
4.9           0.130693720886484
4.91          0.109823802234605
4.92          0.091717487834394
4.93          8.10652587655932E-02
4.94          6.85913753416389E-02
4.95          0.03624080050271
4.96          -2.98026985838078E-02
4.97          -0.126437084935606
4.98          -0.229755576532334
4.99          -0.303518969435245
5             -0.316355014778674
5.01          -0.258690358735621
5.02          -0.14989566645585
5.03          -0.031003221035935
5.04          5.38463419955224E-02
5.05          7.76462730020285E-02
5.06          4.16156616294757E-02
5.07          -2.86583025497384E-02
5.08          -9.92504466231912E-02
5.09          -0.146370297912508
5.1           -0.166612901687622
5.11          -0.173951285239309
5.12          -0.186870141774416
5.13          -0.214785736016929
5.14          -0.252442846354097
5.15          -0.285096366349608
5.16          -0.300099846627563
5.17          -0.296712463237345
5.18          -0.287543956004083
5.19          -0.290732917785645
5.2           -0.317870503440499
5.21          -0.365323472432792
5.22          -0.414549244120717
5.23          -0.44163336429745
5.24          -0.430814005360007
5.25          -0.384332331977785
5.26          -0.32284476634115
5.27          -0.275776635501534
5.28          -0.266514883451164
5.29          -0.300193584803492
5.3           -0.360469113998115
5.31          -0.416896279938519
5.32          -0.438943718187511
5.33          -0.409425584860146
5.34          -0.330941113494337
5.35          -0.223000525832176
5.36          -0.112492279596627
5.37          -2.29178990819491E-02
5.38          3.26877604681067E-02
5.39          5.32743015792221E-02
5.4           0.047069268305786
5.41          2.74573232838884E-02
5.42          9.56506722606719E-03
5.43          7.86212962120771E-03
5.44          3.38092815550044E-02
5.45          9.27308925334364E-02
5.46          0.180470272880048
5.47          0.281849882584065
5.48          0.373215788304806
5.49          0.429796078205109
5.5           0.435814836546779
5.51          0.392876100763679
5.52          0.321805935390294
5.53          0.255621721688658
5.54          0.22558391707018
5.55          0.246212601531297
5.56          0.306484531033784
5.57          0.372232652083039
5.58          0.399819413535297
5.59          0.355688759386539
5.6           0.233040414378047
5.61          0.057490404448472
5.62          -0.121678721336648
5.63          -0.251247474476695
5.64          -0.295777712725103
5.65          -0.251112714428455
5.66          -0.143536910796538
5.67          -1.57778674748261E-02
5.68          9.23584066238254E-02
5.69          0.158756856825203
5.7           0.182571689095348
5.71          0.17682983295992
5.72          0.156363755911589
5.73          0.129129051659256
5.74          9.55149985849857E-02
5.75          5.41952654533088E-02
5.76          8.56662431848236E-03
5.77          -3.20077429921366E-02
5.78          -5.74556546285749E-02
5.79          -6.46658105682582E-02
5.8           -6.12455000448972E-02
5.81          -6.16506344312802E-02
5.82          -7.75349200889468E-02
5.83          -0.108639256842434
5.84          -0.140750904399902
5.85          -0.152976290294901
5.86          -0.130636737942696
5.87          -7.62423017062247E-02
5.88          -1.16560372535605E-02
5.89          3.06682989187539E-02
5.9           2.33340632356703E-02
5.91          -4.15543663641438E-02
